#   d (cM)	weighted LD	    bin count
     0.001	 0.00165116	      4395954
     0.002	 0.00132095	      4327030
     0.003	 0.00109773	      4281602
     0.004	 0.00094958	      4243973
     0.005	 0.00084164	      4218987
     0.006	 0.00076520	      4197796
     0.007	 0.00069363	      4180682
     0.008	 0.00065131	      4166053
     0.009	 0.00060561	      4149485
     0.010	 0.00057053	      4139651
     0.011	 0.00053359	      4129097
     0.012	 0.00050555	      4117383
     0.013	 0.00049135	      4115493
     0.014	 0.00047081	      4106036
     0.015	 0.00045564	      4102224
     0.016	 0.00043807	      4088777
     0.017	 0.00042685	      4088066
     0.018	 0.00040740	      4086448
     0.019	 0.00039745	      4083511
     0.020	 0.00038759	      4077363
     0.021	 0.00037460	      4072434
     0.022	 0.00036116	      4071039
     0.023	 0.00035711	      4064850
     0.024	 0.00034916	      4061581
     0.025	 0.00033953	      4059775
     0.026	 0.00033112	      4057388
     0.027	 0.00032258	      4053590
     0.028	 0.00031638	      4051576
     0.029	 0.00030484	      4048634
     0.030	 0.00030006	      4050601
     0.031	 0.00029876	      4044499
     0.032	 0.00028967	      4045931
     0.033	 0.00028744	      4042949
     0.034	 0.00028114	      4041854
     0.035	 0.00027669	      4040809
     0.036	 0.00027266	      4043233
     0.037	 0.00026928	      4038955
     0.038	 0.00026291	      4031535
     0.039	 0.00025467	      4032794
     0.040	 0.00025439	      4033532
     0.041	 0.00024645	      4035218
     0.042	 0.00024568	      4031407
     0.043	 0.00024535	      4035667
     0.044	 0.00023671	      4026432
     0.045	 0.00023102	      4028324
     0.046	 0.00022703	      4030661
     0.047	 0.00022543	      4024828
     0.048	 0.00022185	      4028298
     0.049	 0.00021660	      4023763
     0.050	 0.00021557	      4021437
     0.051	 0.00021293	      4026440
     0.052	 0.00020948	      4018806
     0.053	 0.00020707	      4021947
     0.054	 0.00020283	      4023025
     0.055	 0.00020000	      4019262
     0.056	 0.00019571	      4020584
     0.057	 0.00019232	      4020399
     0.058	 0.00019193	      4017299
     0.059	 0.00018856	      4018510
     0.060	 0.00018656	      4014393
     0.061	 0.00018503	      4019056
     0.062	 0.00017875	      4014641
     0.063	 0.00017719	      4011855
     0.064	 0.00017338	      4017386
     0.065	 0.00016862	      4015775
     0.066	 0.00016661	      4012593
     0.067	 0.00016410	      4010258
     0.068	 0.00016265	      4014025
     0.069	 0.00015848	      4011364
     0.070	 0.00015735	      4009885
     0.071	 0.00015496	      4011880
     0.072	 0.00015266	      4011862
     0.073	 0.00015099	      4009577
     0.074	 0.00014761	      4010973
     0.075	 0.00014445	      4008707
     0.076	 0.00014079	      4008576
     0.077	 0.00014039	      4012929
     0.078	 0.00013767	      4012832
     0.079	 0.00013751	      4005707
     0.080	 0.00013359	      4009292
     0.081	 0.00013268	      4008459
     0.082	 0.00013276	      4011111
     0.083	 0.00012917	      4009534
     0.084	 0.00012717	      4009755
     0.085	 0.00012526	      4009835
     0.086	 0.00012292	      4011948
     0.087	 0.00012194	      4007618
     0.088	 0.00012071	      4007521
     0.089	 0.00011754	      4008430
     0.090	 0.00011580	      4006920
     0.091	 0.00011532	      4006243
     0.092	 0.00011321	      4004149
     0.093	 0.00011195	      4006224
     0.094	 0.00010788	      4003482
     0.095	 0.00010843	      4002723
     0.096	 0.00010543	      4003208
     0.097	 0.00010339	      4003290
     0.098	 0.00010560	      4000102
     0.099	 0.00010164	      4000722
     0.100	 0.00010033	      3999148
     0.101	 0.00009705	      4000427
     0.102	 0.00009755	      4001178
     0.103	 0.00009556	      4003575
     0.104	 0.00009303	      4002303
     0.105	 0.00009336	      4004750
     0.106	 0.00009134	      4004434
     0.107	 0.00009145	      4001264
     0.108	 0.00009067	      4000604
     0.109	 0.00008731	      3999795
     0.110	 0.00008611	      4000905
     0.111	 0.00008360	      4003287
     0.112	 0.00008291	      4004767
     0.113	 0.00008233	      4002489
     0.114	 0.00008099	      4001458
     0.115	 0.00008029	      4000625
     0.116	 0.00007943	      4000092
     0.117	 0.00007826	      4000918
     0.118	 0.00007608	      3998931
     0.119	 0.00007554	      3999006
     0.120	 0.00007285	      3999653
     0.121	 0.00007213	      3999880
     0.122	 0.00007324	      3998608
     0.123	 0.00007060	      3999009
     0.124	 0.00006879	      3997961
     0.125	 0.00006843	      4001736
     0.126	 0.00006767	      3999036
     0.127	 0.00006588	      3994748
     0.128	 0.00006379	      3997796
     0.129	 0.00006179	      3999633
     0.130	 0.00006292	      3995503
     0.131	 0.00006448	      3995600
     0.132	 0.00006372	      3996499
     0.133	 0.00006040	      3998487
     0.134	 0.00005943	      3990795
     0.135	 0.00005854	      3998451
     0.136	 0.00005779	      3998569
     0.137	 0.00005630	      4000944
     0.138	 0.00005550	      3995599
     0.139	 0.00005530	      3996910
     0.140	 0.00005420	      3992136
     0.141	 0.00005462	      3991301
     0.142	 0.00005184	      3990189
     0.143	 0.00005082	      3993534
     0.144	 0.00005069	      3987468
     0.145	 0.00004904	      3993842
     0.146	 0.00004833	      3993939
     0.147	 0.00004781	      3992557
     0.148	 0.00004722	      3991532
     0.149	 0.00004770	      3995851
     0.150	 0.00004645	      3989790
     0.151	 0.00004637	      3994595
     0.152	 0.00004620	      3994045
     0.153	 0.00004522	      3994628
     0.154	 0.00004345	      3996099
     0.155	 0.00004330	      3992186
     0.156	 0.00004177	      3990352
     0.157	 0.00004106	      3992008
     0.158	 0.00004200	      3993084
     0.159	 0.00004091	      3993615
     0.160	 0.00004001	      3991718
     0.161	 0.00003877	      3996454
     0.162	 0.00003703	      3993097
     0.163	 0.00003807	      3990964
     0.164	 0.00003690	      3995164
     0.165	 0.00003760	      3990457
     0.166	 0.00003494	      3993024
     0.167	 0.00003563	      3994032
     0.168	 0.00003489	      3994098
     0.169	 0.00003556	      3987707
     0.170	 0.00003483	      3995863
     0.171	 0.00003382	      3991867
     0.172	 0.00003366	      3991247
     0.173	 0.00003317	      3991839
     0.174	 0.00003265	      3991423
     0.175	 0.00003210	      3993541
     0.176	 0.00003232	      3993538
     0.177	 0.00003110	      3991374
     0.178	 0.00003043	      3995392
     0.179	 0.00003013	      3996457
     0.180	 0.00002953	      3993461
     0.181	 0.00002927	      3989898
     0.182	 0.00002906	      3994317
     0.183	 0.00002873	      3992879
     0.184	 0.00002832	      3992234
     0.185	 0.00002671	      3991156
     0.186	 0.00002726	      3989573
     0.187	 0.00002711	      3990906
     0.188	 0.00002780	      3990726
     0.189	 0.00002771	      3994746
     0.190	 0.00002550	      3991248
     0.191	 0.00002550	      3991833
     0.192	 0.00002485	      3992663
     0.193	 0.00002522	      3992246
     0.194	 0.00002437	      3993348
     0.195	 0.00002432	      3987003
     0.196	 0.00002336	      3988931
     0.197	 0.00002301	      3986522
     0.198	 0.00002295	      3991930
     0.199	 0.00002129	      3990027
     0.200	 0.00002135	      3989081
     0.201	 0.00002045	      3991427
     0.202	 0.00002144	      3988124
     0.203	 0.00002119	      3993717
     0.204	 0.00002118	      3988516
     0.205	 0.00002059	      3992418
     0.206	 0.00002048	      3991363
     0.207	 0.00001865	      3992323
     0.208	 0.00001955	      3991790
     0.209	 0.00001918	      3993035
     0.210	 0.00001895	      3988780
     0.211	 0.00001967	      3989824
     0.212	 0.00001911	      3983706
     0.213	 0.00001744	      3988827
     0.214	 0.00001770	      3990051
     0.215	 0.00001777	      3992976
     0.216	 0.00001681	      3989292
     0.217	 0.00001688	      3987464
     0.218	 0.00001789	      3987393
     0.219	 0.00001767	      3989338
     0.220	 0.00001685	      3988925
     0.221	 0.00001615	      3988516
     0.222	 0.00001659	      3988181
     0.223	 0.00001632	      3988544
     0.224	 0.00001633	      3987355
     0.225	 0.00001607	      3983629
     0.226	 0.00001512	      3984541
     0.227	 0.00001513	      3991853
     0.228	 0.00001539	      3987814
     0.229	 0.00001473	      3988470
     0.230	 0.00001484	      3989645
     0.231	 0.00001520	      3985059
     0.232	 0.00001501	      3990494
     0.233	 0.00001416	      3987566
     0.234	 0.00001401	      3989541
     0.235	 0.00001393	      3992779
     0.236	 0.00001369	      3991008
     0.237	 0.00001270	      3988529
     0.238	 0.00001262	      3989091
     0.239	 0.00001261	      3990351
     0.240	 0.00001207	      3989648
     0.241	 0.00001242	      3988570
     0.242	 0.00001210	      3990824
     0.243	 0.00001229	      3988923
     0.244	 0.00001245	      3988637
     0.245	 0.00001270	      3992030
     0.246	 0.00001213	      3991291
     0.247	 0.00001088	      3990351
     0.248	 0.00001075	      3988593
     0.249	 0.00001153	      3988743
     0.250	 0.00001101	      3989014
     0.251	 0.00001115	      3990932
     0.252	 0.00001027	      3989160
     0.253	 0.00001010	      3988471
     0.254	 0.00001027	      3986203
     0.255	 0.00000987	      3986857
     0.256	 0.00000981	      3986780
     0.257	 0.00000937	      3987038
     0.258	 0.00000982	      3986892
     0.259	 0.00000907	      3988872
     0.260	 0.00000972	      3986781
     0.261	 0.00000969	      3986882
     0.262	 0.00000930	      3986954
     0.263	 0.00000847	      3988405
     0.264	 0.00000874	      3984036
     0.265	 0.00000883	      3984185
     0.266	 0.00000886	      3987293
     0.267	 0.00000828	      3988191
     0.268	 0.00000766	      3987341
     0.269	 0.00000913	      3983191
     0.270	 0.00000876	      3989335
     0.271	 0.00000848	      3987438
     0.272	 0.00000806	      3989230
     0.273	 0.00000818	      3990815
     0.274	 0.00000712	      3985620
     0.275	 0.00000760	      3985735
     0.276	 0.00000798	      3986532
     0.277	 0.00000795	      3984230
     0.278	 0.00000672	      3987519
     0.279	 0.00000693	      3983844
     0.280	 0.00000700	      3987660
     0.281	 0.00000663	      3986517
     0.282	 0.00000656	      3985572
     0.283	 0.00000649	      3989054
     0.284	 0.00000670	      3984136
     0.285	 0.00000659	      3986670
     0.286	 0.00000670	      3988729
     0.287	 0.00000688	      3986503
     0.288	 0.00000667	      3988742
     0.289	 0.00000676	      3984161
     0.290	 0.00000740	      3986677
     0.291	 0.00000614	      3989306
     0.292	 0.00000638	      3985099
     0.293	 0.00000586	      3988804
     0.294	 0.00000620	      3983991
     0.295	 0.00000620	      3985627
     0.296	 0.00000611	      3985822
     0.297	 0.00000478	      3986188
     0.298	 0.00000542	      3984267
     0.299	 0.00000533	      3987067
     0.300	 0.00000501	      3985196
     0.301	 0.00000498	      3986431
     0.302	 0.00000521	      3983707
     0.303	 0.00000461	      3987758
     0.304	 0.00000406	      3985616
     0.305	 0.00000480	      3985090
     0.306	 0.00000433	      3988213
     0.307	 0.00000505	      3988280
     0.308	 0.00000341	      3987828
     0.309	 0.00000413	      3985692
     0.310	 0.00000379	      3986078
     0.311	 0.00000333	      3985291
     0.312	 0.00000396	      3991596
     0.313	 0.00000349	      3986004
     0.314	 0.00000357	      3984421
     0.315	 0.00000319	      3987836
     0.316	 0.00000376	      3991798
     0.317	 0.00000361	      3984808
     0.318	 0.00000317	      3984134
     0.319	 0.00000313	      3986468
     0.320	 0.00000303	      3983903
     0.321	 0.00000317	      3982626
     0.322	 0.00000378	      3987193
     0.323	 0.00000393	      3982341
     0.324	 0.00000300	      3984694
     0.325	 0.00000278	      3984063
     0.326	 0.00000280	      3983650
     0.327	 0.00000374	      3984544
     0.328	 0.00000360	      3983789
     0.329	 0.00000216	      3984993
     0.330	 0.00000323	      3981163
     0.331	 0.00000340	      3986732
     0.332	 0.00000330	      3987211
     0.333	 0.00000250	      3984821
     0.334	 0.00000284	      3986787
     0.335	 0.00000302	      3982621
     0.336	 0.00000327	      3985146
     0.337	 0.00000326	      3981953
     0.338	 0.00000278	      3985415
     0.339	 0.00000279	      3985713
     0.340	 0.00000270	      3984573
     0.341	 0.00000279	      3985350
     0.342	 0.00000297	      3987406
     0.343	 0.00000286	      3982073
     0.344	 0.00000285	      3985778
     0.345	 0.00000290	      3986216
     0.346	 0.00000333	      3984136
     0.347	 0.00000375	      3982480
     0.348	 0.00000360	      3984776
     0.349	 0.00000235	      3984546
     0.350	 0.00000290	      3979062
     0.351	 0.00000283	      3984493
     0.352	 0.00000209	      3987164
     0.353	 0.00000181	      3978565
     0.354	 0.00000251	      3981851
     0.355	 0.00000288	      3983081
     0.356	 0.00000234	      3981813
     0.357	 0.00000242	      3986552
     0.358	 0.00000242	      3986300
     0.359	 0.00000239	      3982465
     0.360	 0.00000212	      3984680
     0.361	 0.00000184	      3986524
     0.362	 0.00000217	      3981439
     0.363	 0.00000244	      3986027
     0.364	 0.00000221	      3986514
     0.365	 0.00000231	      3986956
     0.366	 0.00000197	      3986517
     0.367	 0.00000223	      3983350
     0.368	 0.00000251	      3987627
     0.369	 0.00000253	      3986596
     0.370	 0.00000237	      3977738
     0.371	 0.00000184	      3986735
     0.372	 0.00000159	      3983984
     0.373	 0.00000237	      3984034
     0.374	 0.00000233	      3982065
     0.375	 0.00000197	      3980950
     0.376	 0.00000237	      3982677
     0.377	 0.00000230	      3979819
     0.378	 0.00000201	      3984775
     0.379	 0.00000221	      3982989
     0.380	 0.00000123	      3985014
     0.381	 0.00000180	      3985426
     0.382	 0.00000194	      3987091
     0.383	 0.00000153	      3981323
     0.384	 0.00000112	      3980830
     0.385	 0.00000137	      3983845
     0.386	 0.00000169	      3984339
     0.387	 0.00000159	      3979678
     0.388	 0.00000110	      3980751
     0.389	 0.00000145	      3986861
     0.390	 0.00000123	      3983229
     0.391	 0.00000118	      3978486
     0.392	 0.00000054	      3979118
     0.393	 0.00000067	      3982655
     0.394	 0.00000071	      3979897
     0.395	 0.00000086	      3980189
     0.396	 0.00000039	      3984490
     0.397	 0.00000001	      3979755
     0.398	 0.00000042	      3978329
     0.399	 0.00000070	      3983994
     0.400	 0.00000072	      3984952
     0.401	 0.00000165	      3981779
     0.402	 0.00000142	      3983202
     0.403	 0.00000099	      3980894
     0.404	 0.00000166	      3980013
     0.405	 0.00000158	      3981147
     0.406	 0.00000108	      3981962
     0.407	 0.00000174	      3983087
     0.408	 0.00000166	      3980922
     0.409	 0.00000154	      3981858
     0.410	 0.00000164	      3983052
     0.411	 0.00000140	      3981382
     0.412	 0.00000092	      3984544
     0.413	 0.00000192	      3980707
     0.414	 0.00000129	      3988395
     0.415	 0.00000119	      3980787
     0.416	 0.00000141	      3980849
     0.417	 0.00000132	      3979598
     0.418	 0.00000112	      3983282
     0.419	 0.00000132	      3981617
     0.420	 0.00000106	      3982180
     0.421	 0.00000069	      3981562
     0.422	 0.00000054	      3978906
     0.423	 0.00000079	      3980044
     0.424	 0.00000069	      3979035
     0.425	 0.00000045	      3983211
     0.426	 0.00000040	      3977908
     0.427	 0.00000098	      3981350
     0.428	 0.00000056	      3981024
     0.429	 0.00000089	      3982531
     0.430	 0.00000033	      3981782
     0.431	 0.00000088	      3978801
     0.432	 0.00000018	      3981391
     0.433	 0.00000051	      3982536
     0.434	 0.00000022	      3977076
     0.435	 0.00000007	      3976794
     0.436	-0.00000037	      3981848
     0.437	 0.00000030	      3980814
     0.438	 0.00000033	      3984132
     0.439	 0.00000058	      3982845
     0.440	 0.00000109	      3977694
     0.441	 0.00000122	      3980349
     0.442	 0.00000034	      3980348
     0.443	 0.00000090	      3982401
     0.444	 0.00000003	      3981049
     0.445	 0.00000049	      3981212
     0.446	 0.00000020	      3981252
     0.447	 0.00000096	      3977904
     0.448	 0.00000069	      3980153
     0.449	 0.00000105	      3978358
     0.450	 0.00000050	      3983794
     0.451	 0.00000036	      3980089
     0.452	 0.00000089	      3979903
     0.453	 0.00000077	      3976941
     0.454	 0.00000077	      3981529
     0.455	 0.00000035	      3983452
     0.456	 0.00000162	      3979572
     0.457	 0.00000137	      3980970
     0.458	 0.00000095	      3978301
     0.459	 0.00000025	      3974567
     0.460	 0.00000093	      3978751
     0.461	 0.00000120	      3979772
     0.462	 0.00000045	      3979311
     0.463	 0.00000076	      3977447
     0.464	 0.00000069	      3980891
     0.465	 0.00000052	      3978404
     0.466	 0.00000127	      3980054
     0.467	 0.00000080	      3976337
     0.468	 0.00000125	      3979346
     0.469	 0.00000111	      3975871
     0.470	 0.00000087	      3975645
     0.471	 0.00000072	      3975256
     0.472	 0.00000057	      3976724
     0.473	 0.00000014	      3978023
     0.474	 0.00000011	      3976267
     0.475	 0.00000045	      3979485
     0.476	 0.00000012	      3976178
     0.477	 0.00000066	      3978136
     0.478	 0.00000038	      3975459
     0.479	 0.00000006	      3975122
     0.480	 0.00000065	      3975612
     0.481	 0.00000033	      3982038
     0.482	 0.00000074	      3977275
     0.483	 0.00000077	      3974665
     0.484	 0.00000115	      3977515
     0.485	 0.00000083	      3974986
     0.486	 0.00000105	      3978267
     0.487	 0.00000032	      3975316
     0.488	 0.00000087	      3979308
     0.489	 0.00000015	      3976029
     0.490	 0.00000017	      3976914
     0.491	 0.00000070	      3976176
     0.492	 0.00000063	      3977777
     0.493	 0.00000068	      3978462
     0.494	 0.00000068	      3978394
     0.495	 0.00000055	      3977170
     0.496	 0.00000099	      3976272
     0.497	 0.00000115	      3972589
     0.498	 0.00000121	      3975278
     0.499	 0.00000039	      3973908
     0.500	 0.00000065	      3976314
     0.501	 0.00000101	      3976559
     0.502	 0.00000029	      3976769
     0.503	 0.00000078	      3976145
     0.504	 0.00000099	      3974532
     0.505	 0.00000089	      3975193
     0.506	 0.00000105	      3976628
     0.507	 0.00000029	      3975037
     0.508	 0.00000017	      3976410
     0.509	-0.00000020	      3973836
     0.510	 0.00000003	      3978630
     0.511	 0.00000044	      3975077
     0.512	-0.00000001	      3971619
     0.513	 0.00000027	      3974158
     0.514	 0.00000017	      3977077
     0.515	-0.00000008	      3973918
     0.516	 0.00000023	      3972316
     0.517	 0.00000008	      3975350
     0.518	 0.00000017	      3978975
     0.519	-0.00000011	      3974752
     0.520	 0.00000007	      3973184
     0.521	 0.00000013	      3978522
     0.522	-0.00000038	      3978860
     0.523	-0.00000044	      3979777
     0.524	-0.00000060	      3978913
     0.525	 0.00000011	      3975776
     0.526	 0.00000017	      3972952
     0.527	-0.00000036	      3972529
     0.528	-0.00000006	      3976350
     0.529	-0.00000085	      3974395
     0.530	-0.00000040	      3973138
     0.531	 0.00000013	      3975732
     0.532	 0.00000034	      3975736
     0.533	 0.00000000	      3977647
     0.534	 0.00000010	      3976443
     0.535	 0.00000034	      3973589
     0.536	-0.00000019	      3974815
     0.537	-0.00000021	      3972262
     0.538	-0.00000015	      3974311
     0.539	 0.00000022	      3974082
