#   d (cM)	weighted LD	    bin count
     0.001	 0.00158499	      4406012
     0.002	 0.00126482	      4337633
     0.003	 0.00105172	      4290145
     0.004	 0.00090068	      4257548
     0.005	 0.00078691	      4229709
     0.006	 0.00070543	      4199685
     0.007	 0.00064902	      4184278
     0.008	 0.00060298	      4167793
     0.009	 0.00056631	      4163000
     0.010	 0.00052591	      4154086
     0.011	 0.00049560	      4136218
     0.012	 0.00047244	      4126743
     0.013	 0.00045273	      4117298
     0.014	 0.00043376	      4113769
     0.015	 0.00041674	      4107382
     0.016	 0.00040290	      4103669
     0.017	 0.00038650	      4094689
     0.018	 0.00037501	      4089308
     0.019	 0.00036023	      4086016
     0.020	 0.00034961	      4080836
     0.021	 0.00034079	      4081469
     0.022	 0.00033707	      4078935
     0.023	 0.00032632	      4073616
     0.024	 0.00032057	      4072440
     0.025	 0.00031039	      4066863
     0.026	 0.00030866	      4065494
     0.027	 0.00029857	      4059614
     0.028	 0.00029489	      4065426
     0.029	 0.00028640	      4056758
     0.030	 0.00027922	      4054708
     0.031	 0.00027282	      4054249
     0.032	 0.00027045	      4051250
     0.033	 0.00026342	      4053911
     0.034	 0.00025851	      4050750
     0.035	 0.00025698	      4049768
     0.036	 0.00024901	      4046598
     0.037	 0.00024379	      4049988
     0.038	 0.00024117	      4045524
     0.039	 0.00023300	      4043853
     0.040	 0.00022992	      4046264
     0.041	 0.00022598	      4041089
     0.042	 0.00022205	      4039655
     0.043	 0.00021585	      4039951
     0.044	 0.00021432	      4038866
     0.045	 0.00020993	      4041524
     0.046	 0.00020757	      4035811
     0.047	 0.00020606	      4036341
     0.048	 0.00020192	      4032945
     0.049	 0.00019578	      4031231
     0.050	 0.00019555	      4030643
     0.051	 0.00018914	      4030353
     0.052	 0.00018560	      4031705
     0.053	 0.00018444	      4026658
     0.054	 0.00018284	      4027961
     0.055	 0.00017945	      4026764
     0.056	 0.00017555	      4027258
     0.057	 0.00017235	      4026464
     0.058	 0.00017006	      4027965
     0.059	 0.00016700	      4023523
     0.060	 0.00016336	      4025350
     0.061	 0.00015738	      4022538
     0.062	 0.00015690	      4024905
     0.063	 0.00015576	      4024490
     0.064	 0.00015329	      4024143
     0.065	 0.00014849	      4021334
     0.066	 0.00015141	      4023076
     0.067	 0.00014246	      4018652
     0.068	 0.00014369	      4018009
     0.069	 0.00014100	      4018313
     0.070	 0.00013865	      4021711
     0.071	 0.00013670	      4017148
     0.072	 0.00013598	      4017579
     0.073	 0.00013308	      4022314
     0.074	 0.00013183	      4021255
     0.075	 0.00013001	      4018259
     0.076	 0.00012738	      4018897
     0.077	 0.00012678	      4016361
     0.078	 0.00012318	      4016300
     0.079	 0.00012149	      4015111
     0.080	 0.00011917	      4017637
     0.081	 0.00011859	      4015039
     0.082	 0.00011849	      4015680
     0.083	 0.00011526	      4019851
     0.084	 0.00011459	      4011360
     0.085	 0.00011342	      4012905
     0.086	 0.00011161	      4012765
     0.087	 0.00011057	      4016241
     0.088	 0.00011014	      4012199
     0.089	 0.00010548	      4014447
     0.090	 0.00010310	      4013556
     0.091	 0.00010536	      4013261
     0.092	 0.00010243	      4014045
     0.093	 0.00010076	      4011689
     0.094	 0.00009953	      4009882
     0.095	 0.00009788	      4012315
     0.096	 0.00009617	      4009426
     0.097	 0.00009551	      4012195
     0.098	 0.00009186	      4014773
     0.099	 0.00009191	      4009983
     0.100	 0.00009108	      4012293
     0.101	 0.00008795	      4007812
     0.102	 0.00008761	      4010148
     0.103	 0.00008495	      4010765
     0.104	 0.00008378	      4012067
     0.105	 0.00008241	      4007835
     0.106	 0.00008165	      4012922
     0.107	 0.00007999	      4007029
     0.108	 0.00008161	      4005322
     0.109	 0.00007853	      4007796
     0.110	 0.00007922	      4008471
     0.111	 0.00007735	      4010484
     0.112	 0.00007624	      4006111
     0.113	 0.00007439	      4011066
     0.114	 0.00007412	      4006901
     0.115	 0.00007486	      4006673
     0.116	 0.00007241	      4008047
     0.117	 0.00007289	      4011576
     0.118	 0.00007054	      4005367
     0.119	 0.00006935	      4011881
     0.120	 0.00006913	      4006716
     0.121	 0.00006800	      4005617
     0.122	 0.00006636	      4003717
     0.123	 0.00006507	      4008249
     0.124	 0.00006327	      4007640
     0.125	 0.00006358	      4006833
     0.126	 0.00006245	      4007645
     0.127	 0.00006283	      4005393
     0.128	 0.00006250	      4007781
     0.129	 0.00006103	      4006422
     0.130	 0.00006156	      4005255
     0.131	 0.00005855	      4005835
     0.132	 0.00005787	      4007419
     0.133	 0.00005652	      4005295
     0.134	 0.00005609	      4005137
     0.135	 0.00005640	      4006566
     0.136	 0.00005470	      4006059
     0.137	 0.00005224	      4005320
     0.138	 0.00005263	      4002014
     0.139	 0.00005004	      4005792
     0.140	 0.00005077	      4004056
     0.141	 0.00005008	      4005387
     0.142	 0.00004961	      4005814
     0.143	 0.00004774	      4002144
     0.144	 0.00004690	      4004888
     0.145	 0.00004637	      4003743
     0.146	 0.00004542	      4001748
     0.147	 0.00004433	      4001414
     0.148	 0.00004361	      4004035
     0.149	 0.00004428	      4002633
     0.150	 0.00004324	      4004295
     0.151	 0.00004258	      4005092
     0.152	 0.00004302	      4000126
     0.153	 0.00004304	      4003442
     0.154	 0.00004185	      4002001
     0.155	 0.00004128	      4001063
     0.156	 0.00003963	      3999719
     0.157	 0.00004030	      4001997
     0.158	 0.00003987	      4004532
     0.159	 0.00003911	      4005703
     0.160	 0.00003805	      3997010
     0.161	 0.00003954	      4005609
     0.162	 0.00003802	      3997662
     0.163	 0.00003759	      4000167
     0.164	 0.00003671	      3998872
     0.165	 0.00003663	      3998247
     0.166	 0.00003594	      4002894
     0.167	 0.00003548	      4000371
     0.168	 0.00003628	      3999011
     0.169	 0.00003494	      4001716
     0.170	 0.00003370	      3998405
     0.171	 0.00003366	      4000032
     0.172	 0.00003390	      4000252
     0.173	 0.00003314	      4000306
     0.174	 0.00003294	      4006841
     0.175	 0.00003159	      4001645
     0.176	 0.00003169	      4003190
     0.177	 0.00002960	      3999058
     0.178	 0.00002906	      3997432
     0.179	 0.00002880	      3994310
     0.180	 0.00002812	      3996139
     0.181	 0.00002885	      3998656
     0.182	 0.00002953	      3998844
     0.183	 0.00002999	      3992882
     0.184	 0.00002804	      3999717
     0.185	 0.00002849	      3999462
     0.186	 0.00002791	      3996315
     0.187	 0.00002793	      3998171
     0.188	 0.00002678	      3998089
     0.189	 0.00002654	      3999778
     0.190	 0.00002688	      3996368
     0.191	 0.00002692	      3999524
     0.192	 0.00002638	      3999701
     0.193	 0.00002478	      3994217
     0.194	 0.00002490	      3998320
     0.195	 0.00002494	      3998618
     0.196	 0.00002513	      3995667
     0.197	 0.00002467	      4001680
     0.198	 0.00002287	      3997259
     0.199	 0.00002304	      3997592
     0.200	 0.00002315	      3997512
     0.201	 0.00002301	      3997535
     0.202	 0.00002217	      3996041
     0.203	 0.00002273	      3991463
     0.204	 0.00002210	      3995361
     0.205	 0.00002273	      3997790
     0.206	 0.00002162	      3996940
     0.207	 0.00002217	      3994924
     0.208	 0.00002176	      3997049
     0.209	 0.00002128	      3995501
     0.210	 0.00002116	      3995308
     0.211	 0.00002013	      3999444
     0.212	 0.00002089	      4000379
     0.213	 0.00002061	      3999097
     0.214	 0.00001954	      3997643
     0.215	 0.00001826	      4000337
     0.216	 0.00001916	      3998753
     0.217	 0.00001904	      3999796
     0.218	 0.00001928	      3995185
     0.219	 0.00001835	      3996198
     0.220	 0.00001864	      3996738
     0.221	 0.00001824	      3998715
     0.222	 0.00001769	      3998051
     0.223	 0.00001854	      3997127
     0.224	 0.00001692	      3996404
     0.225	 0.00001720	      3998488
     0.226	 0.00001654	      3998078
     0.227	 0.00001668	      3996089
     0.228	 0.00001739	      3996376
     0.229	 0.00001595	      3998735
     0.230	 0.00001696	      3996948
     0.231	 0.00001602	      3996716
     0.232	 0.00001615	      3996152
     0.233	 0.00001571	      3997107
     0.234	 0.00001521	      3994867
     0.235	 0.00001556	      3999446
     0.236	 0.00001509	      3992685
     0.237	 0.00001472	      3993491
     0.238	 0.00001374	      3997081
     0.239	 0.00001329	      3999385
     0.240	 0.00001334	      3996917
     0.241	 0.00001460	      3991529
     0.242	 0.00001336	      3996380
     0.243	 0.00001358	      3994103
     0.244	 0.00001369	      3996254
     0.245	 0.00001224	      3991939
     0.246	 0.00001268	      3995454
     0.247	 0.00001288	      3994593
     0.248	 0.00001256	      3992855
     0.249	 0.00001334	      3994239
     0.250	 0.00001356	      3993286
     0.251	 0.00001310	      3994602
     0.252	 0.00001257	      3998702
     0.253	 0.00001257	      3995219
     0.254	 0.00001166	      3995018
     0.255	 0.00001246	      3996203
     0.256	 0.00001185	      3991253
     0.257	 0.00001202	      3997104
     0.258	 0.00001082	      3991288
     0.259	 0.00001156	      3995753
     0.260	 0.00001181	      3991389
     0.261	 0.00001180	      3992836
     0.262	 0.00001186	      3993284
     0.263	 0.00001179	      3990797
     0.264	 0.00001129	      3990382
     0.265	 0.00001120	      3990839
     0.266	 0.00001122	      3993149
     0.267	 0.00001053	      3996285
     0.268	 0.00001025	      3995937
     0.269	 0.00001035	      3995270
     0.270	 0.00000984	      3990843
     0.271	 0.00000997	      3991605
     0.272	 0.00000981	      3996147
     0.273	 0.00000982	      3993030
     0.274	 0.00000949	      3994362
     0.275	 0.00000968	      3997394
     0.276	 0.00000979	      3993730
     0.277	 0.00000926	      3996077
     0.278	 0.00000918	      3993153
     0.279	 0.00000905	      3996499
     0.280	 0.00000816	      3995284
     0.281	 0.00000835	      3997748
     0.282	 0.00000866	      3993407
     0.283	 0.00000892	      3996542
     0.284	 0.00000859	      3994072
     0.285	 0.00000826	      3993111
     0.286	 0.00000777	      3990828
     0.287	 0.00000727	      3993056
     0.288	 0.00000783	      3993314
     0.289	 0.00000787	      3995087
     0.290	 0.00000759	      3997703
     0.291	 0.00000786	      3990520
     0.292	 0.00000718	      3993245
     0.293	 0.00000680	      3989968
     0.294	 0.00000745	      3991171
     0.295	 0.00000701	      3994265
     0.296	 0.00000648	      3993664
     0.297	 0.00000619	      3991004
     0.298	 0.00000699	      3992408
     0.299	 0.00000673	      3993356
     0.300	 0.00000653	      3996841
     0.301	 0.00000688	      3993149
     0.302	 0.00000637	      3991679
     0.303	 0.00000710	      3990258
     0.304	 0.00000686	      3990497
     0.305	 0.00000710	      3996625
     0.306	 0.00000664	      3996537
     0.307	 0.00000731	      3990878
     0.308	 0.00000661	      3995478
     0.309	 0.00000665	      3988746
     0.310	 0.00000702	      3992107
     0.311	 0.00000659	      3990704
     0.312	 0.00000619	      3991221
     0.313	 0.00000618	      3992200
     0.314	 0.00000590	      3989362
     0.315	 0.00000605	      3990835
     0.316	 0.00000567	      3991930
     0.317	 0.00000595	      3990520
     0.318	 0.00000638	      3986270
     0.319	 0.00000566	      3989641
     0.320	 0.00000544	      3992099
     0.321	 0.00000527	      3994570
     0.322	 0.00000487	      3993269
     0.323	 0.00000462	      3991067
     0.324	 0.00000481	      3990517
     0.325	 0.00000490	      3990693
     0.326	 0.00000473	      3988121
     0.327	 0.00000465	      3993434
     0.328	 0.00000445	      3988508
     0.329	 0.00000452	      3995175
     0.330	 0.00000375	      3989636
     0.331	 0.00000349	      3991051
     0.332	 0.00000390	      3992482
     0.333	 0.00000423	      3992732
     0.334	 0.00000358	      3991234
     0.335	 0.00000336	      3995493
     0.336	 0.00000288	      3990386
     0.337	 0.00000322	      3986367
     0.338	 0.00000282	      3990932
     0.339	 0.00000354	      3990183
     0.340	 0.00000340	      3988119
     0.341	 0.00000266	      3991382
     0.342	 0.00000321	      3992237
     0.343	 0.00000315	      3987203
     0.344	 0.00000313	      3990011
     0.345	 0.00000354	      3988560
     0.346	 0.00000292	      3992456
     0.347	 0.00000302	      3987990
     0.348	 0.00000314	      3992144
     0.349	 0.00000302	      3991973
     0.350	 0.00000278	      3987618
     0.351	 0.00000312	      3989862
     0.352	 0.00000354	      3990445
     0.353	 0.00000308	      3986470
     0.354	 0.00000230	      3987873
     0.355	 0.00000247	      3987432
     0.356	 0.00000250	      3988049
     0.357	 0.00000259	      3988520
     0.358	 0.00000216	      3989306
     0.359	 0.00000301	      3990000
     0.360	 0.00000239	      3987892
     0.361	 0.00000264	      3990722
     0.362	 0.00000334	      3990291
     0.363	 0.00000277	      3990628
     0.364	 0.00000295	      3985793
     0.365	 0.00000287	      3988337
     0.366	 0.00000223	      3986868
     0.367	 0.00000254	      3987385
     0.368	 0.00000282	      3989129
     0.369	 0.00000258	      3989118
     0.370	 0.00000267	      3987143
     0.371	 0.00000282	      3992183
     0.372	 0.00000273	      3988673
     0.373	 0.00000261	      3990816
     0.374	 0.00000205	      3994608
     0.375	 0.00000193	      3993647
     0.376	 0.00000194	      3990902
     0.377	 0.00000145	      3990980
     0.378	 0.00000174	      3989001
     0.379	 0.00000190	      3986013
     0.380	 0.00000189	      3987994
     0.381	 0.00000142	      3988958
     0.382	 0.00000181	      3989083
     0.383	 0.00000169	      3989780
     0.384	 0.00000229	      3989237
     0.385	 0.00000268	      3991931
     0.386	 0.00000133	      3987233
     0.387	 0.00000154	      3988670
     0.388	 0.00000245	      3991932
     0.389	 0.00000218	      3989303
     0.390	 0.00000190	      3990119
     0.391	 0.00000228	      3990981
     0.392	 0.00000228	      3987651
     0.393	 0.00000235	      3988475
     0.394	 0.00000267	      3987518
     0.395	 0.00000205	      3989233
     0.396	 0.00000168	      3988118
     0.397	 0.00000168	      3989098
     0.398	 0.00000171	      3985642
     0.399	 0.00000153	      3983349
     0.400	 0.00000151	      3987269
     0.401	 0.00000181	      3986799
     0.402	 0.00000169	      3986143
     0.403	 0.00000200	      3990073
     0.404	 0.00000222	      3989818
     0.405	 0.00000224	      3987181
     0.406	 0.00000174	      3988275
     0.407	 0.00000145	      3987218
     0.408	 0.00000107	      3986879
     0.409	 0.00000106	      3990459
     0.410	 0.00000085	      3987521
     0.411	 0.00000096	      3990716
     0.412	 0.00000114	      3988380
     0.413	 0.00000076	      3985651
     0.414	 0.00000147	      3987517
     0.415	 0.00000093	      3985978
     0.416	 0.00000138	      3982653
     0.417	 0.00000160	      3989707
     0.418	 0.00000096	      3988386
     0.419	 0.00000119	      3986548
     0.420	 0.00000153	      3984723
     0.421	 0.00000148	      3984752
     0.422	 0.00000139	      3985659
     0.423	 0.00000157	      3987717
     0.424	 0.00000140	      3985674
     0.425	 0.00000127	      3988118
     0.426	 0.00000104	      3987952
     0.427	 0.00000095	      3987123
     0.428	 0.00000125	      3984855
     0.429	 0.00000081	      3990616
     0.430	 0.00000090	      3988194
     0.431	 0.00000116	      3986725
     0.432	 0.00000041	      3985424
     0.433	 0.00000070	      3986538
     0.434	 0.00000056	      3988919
     0.435	 0.00000011	      3990514
     0.436	 0.00000022	      3988878
     0.437	-0.00000004	      3987460
     0.438	 0.00000074	      3988894
     0.439	 0.00000082	      3987502
     0.440	 0.00000066	      3987687
     0.441	 0.00000102	      3987358
     0.442	 0.00000060	      3985539
     0.443	 0.00000027	      3988083
     0.444	 0.00000046	      3983361
     0.445	 0.00000064	      3987329
     0.446	 0.00000076	      3986131
     0.447	 0.00000077	      3985997
     0.448	 0.00000060	      3986685
     0.449	 0.00000052	      3986007
     0.450	 0.00000072	      3983128
     0.451	 0.00000050	      3984170
     0.452	 0.00000047	      3981326
     0.453	 0.00000006	      3984919
     0.454	 0.00000044	      3986319
     0.455	 0.00000020	      3985704
     0.456	 0.00000024	      3983036
     0.457	 0.00000069	      3983537
     0.458	 0.00000045	      3988316
     0.459	 0.00000096	      3984294
     0.460	 0.00000086	      3989867
     0.461	 0.00000083	      3984975
     0.462	 0.00000065	      3987543
     0.463	 0.00000073	      3987355
     0.464	 0.00000121	      3988029
     0.465	 0.00000129	      3987281
     0.466	 0.00000073	      3989859
     0.467	 0.00000023	      3986657
     0.468	 0.00000072	      3983440
     0.469	 0.00000020	      3985014
     0.470	 0.00000094	      3985628
     0.471	 0.00000085	      3982507
     0.472	 0.00000068	      3983432
     0.473	 0.00000062	      3984000
     0.474	 0.00000019	      3982180
     0.475	 0.00000052	      3983414
     0.476	 0.00000024	      3981626
     0.477	 0.00000014	      3983331
     0.478	 0.00000004	      3984222
     0.479	-0.00000016	      3982639
     0.480	-0.00000012	      3984805
     0.481	 0.00000064	      3982318
     0.482	 0.00000016	      3984153
     0.483	 0.00000078	      3983275
     0.484	 0.00000116	      3987014
     0.485	 0.00000084	      3984240
     0.486	 0.00000010	      3982984
     0.487	 0.00000020	      3987881
     0.488	 0.00000090	      3984976
     0.489	 0.00000046	      3986063
     0.490	 0.00000046	      3982850
     0.491	 0.00000014	      3984938
     0.492	 0.00000065	      3987556
     0.493	 0.00000076	      3987967
     0.494	 0.00000095	      3982881
     0.495	 0.00000037	      3985938
     0.496	 0.00000078	      3987828
     0.497	 0.00000046	      3981744
     0.498	 0.00000016	      3987028
     0.499	 0.00000065	      3983420
     0.500	 0.00000062	      3983741
     0.501	 0.00000064	      3986491
     0.502	 0.00000088	      3982160
     0.503	 0.00000101	      3984097
     0.504	 0.00000074	      3983925
     0.505	 0.00000116	      3985148
     0.506	 0.00000076	      3983766
     0.507	 0.00000092	      3984269
     0.508	 0.00000055	      3984420
     0.509	 0.00000032	      3984652
     0.510	 0.00000093	      3979698
     0.511	 0.00000034	      3981936
     0.512	 0.00000058	      3984037
     0.513	 0.00000038	      3981034
     0.514	 0.00000074	      3988429
     0.515	 0.00000065	      3983837
     0.516	 0.00000034	      3983926
     0.517	 0.00000008	      3986827
     0.518	-0.00000012	      3979954
     0.519	-0.00000004	      3984777
     0.520	-0.00000004	      3984568
     0.521	-0.00000029	      3984828
     0.522	-0.00000007	      3983662
     0.523	 0.00000006	      3985400
     0.524	 0.00000029	      3987034
     0.525	 0.00000074	      3988192
     0.526	-0.00000004	      3985469
     0.527	 0.00000014	      3990390
     0.528	-0.00000009	      3982200
     0.529	-0.00000027	      3986501
     0.530	-0.00000052	      3983113
     0.531	 0.00000020	      3986197
     0.532	-0.00000001	      3983459
     0.533	 0.00000029	      3983673
     0.534	 0.00000059	      3985747
     0.535	 0.00000030	      3980927
     0.536	 0.00000067	      3984282
     0.537	 0.00000027	      3985537
     0.538	 0.00000021	      3982017
     0.539	 0.00000100	      3981085
